Dystans (m),Wysokość (m),Szer. geograficzna,Dł. geograficzna
0,1028.855102539062,38.76736,21.58474
3.3170910269847473,1030.313354492188,38.76733066545994,21.58474671373616
6.634182053969495,1031.598022460938,38.76730133091949,21.58475342746679
9.951273080954241,1032.765014648438,38.76727199637867,21.58476014119191
13.26836410793899,1033.933715820312,38.76724266183746,21.5847668549115
16.585455134923738,1035.10400390625,38.76721332729588,21.58477356862557
19.902546161908482,1036.276000976562,38.76718399275391,21.58478028233413
23.21963718889323,1037.44970703125,38.76715465821153,21.58478699603715
26.53672821587798,1038.625122070312,38.76712532366879,21.58479370973467
29.853819242862727,1039.802124023438,38.76709598912566,21.58480042342665
33.170910269847475,1040.980834960938,38.76706665458215,21.58480713711312
36.48800129683222,1042.1611328125,38.76703732003826,21.58481385079407
39.805092323816964,1043.343139648438,38.76700798549397,21.5848205644695
43.12218335080171,1044.52685546875,38.76697865094931,21.5848272781394
46.43927437778646,1045.712280273438,38.76694931640425,21.58483399180378
49.75636540477121,1046.899291992188,38.76691998185882,21.58484070546265
53.07345643175596,1048.088012695312,38.766890647313,21.58484741911599
56.390547458740706,1049.278442382812,38.76686131276679,21.58485413276381
59.707638485725454,1050.470458984375,38.76683197822022,21.58486084640612
63.0247295127102,1051.664184570312,38.76680264367324,21.5848675600429
66.34182053969495,1052.859619140625,38.76677330912589,21.58487427367416
69.65891156667969,1054.056640625,38.76674397457815,21.5848809872999
72.97600259366445,1055.25537109375,38.76671464003003,21.58488770092012
76.29309362064919,1056.455810546875,38.76668530548153,21.58489441453482
79.61018464763393,1057.657958984375,38.76665597093263,21.58490112814399
82.92727567461868,1058.7158203125,38.76662663638336,21.58490784174765
86.24436670160343,1059.130981445312,38.7665973018337,21.58491455534578
89.56145772858818,1059.541259765625,38.76656796728366,21.5849212689384
92.87854875557292,1059.946411132812,38.76653863273323,21.5849279825255
96.19563978255768,1060.3466796875,38.76650929818243,21.58493469610707
99.51273080954242,1060.741821289062,38.76647996363122,21.58494140968313
102.82982183652717,1061.131958007812,38.76645062907964,21.58494812325365
106.14691286351191,1061.517211914062,38.76642129452769,21.58495483681867
109.46400389049666,1061.897338867188,38.76639195997534,21.58496155037816
112.78109491748141,1062.2724609375,38.7663626254226,21.58496826393213
116.09818594446615,1062.642578125,38.76633329086948,21.58497497748058
119.41527697145091,1063.007690429688,38.76630395631599,21.58498169102351
122.73236799843565,1063.367797851562,38.76627462176211,21.58498840456092
126.0494590254204,1063.722900390625,38.76624528720783,21.58499511809281
129.36655005240516,1064.072998046875,38.76621595265318,21.58500183161918
132.6836410793899,1064.41796875,38.76618661809815,21.58500854514003
136.00073210637464,1064.758056640625,38.76615728354274,21.58501525865535
139.31782313335938,1065.093139648438,38.76612794898693,21.58502197216517
142.63491416034412,1065.423095703125,38.76609861443075,21.58502868566945
145.9520051873289,1065.748168945312,38.76606927987418,21.58503539916821
149.26909621431363,1066.068115234375,38.76603994531722,21.58504211266146
152.58618724129838,1066.383178710938,38.76601061075988,21.58504882614918
155.90327826828312,1066.693115234375,38.76598127620215,21.58505553963139
159.22036929526786,1066.998046875,38.76595194164404,21.58506225310807
162.53746032225263,1067.402465820312,38.76592260708555,21.58506896657924
165.85455134923737,1067.83447265625,38.76589327252668,21.58507568004488
169.1716423762221,1068.264892578125,38.76586393796742,21.585082393505
172.48873340320685,1068.693725585938,38.76583460340778,21.58508910695961
175.80582443019162,1069.120727539062,38.76580526884774,21.58509582040869
179.12291545717636,1069.546142578125,38.76577593428734,21.58510253385225
182.4400064841611,1069.969848632812,38.76574659972653,21.58510924729029
185.75709751114584,1070.391967773438,38.76571726516536,21.58511596072281
189.07418853813058,1070.812255859375,38.76568793060379,21.58512267414982
192.39127956511535,1071.231079101562,38.76565859604185,21.58512938757129
195.7083705921001,1071.648071289062,38.76562926147952,21.58513610098726
199.02546161908484,1072.0634765625,38.7655999269168,21.58514281439769
202.34255264606958,1072.477172851562,38.76557059235369,21.58514952780261
205.65964367305435,1072.88916015625,38.76554125779022,21.58515624120201
208.9767347000391,1073.299560546875,38.76551192322635,21.58516295459589
212.29382572702383,1073.708251953125,38.7654825886621,21.58516966798425
215.61091675400857,1074.115234375,38.76545325409746,21.58517638136709
218.9280077809933,1074.520629882812,38.76542391953244,21.5851830947444
222.24509880797808,1074.92431640625,38.76539458496704,21.5851898081162
225.56218983496282,1075.326293945312,38.76536525040125,21.58519652148248
228.87928086194756,1075.726684570312,38.76533591583507,21.58520323484324
232.1963718889323,1076.125244140625,38.76530658126852,21.58520994819848
235.51346291591707,1076.522338867188,38.76527724670157,21.58521666154819
238.83055394290182,1076.8828125,38.76524791213425,21.58522337489239
242.14764496988656,1077.185302734375,38.76521857756655,21.58523008823107
245.4647359968713,1077.490356445312,38.76518924299845,21.58523680156422
248.78182702385604,1077.7978515625,38.76515990842997,21.58524351489186
252.0989180508408,1078.10791015625,38.76513057386111,21.58525022821397
255.41600907782555,1078.420532226562,38.76510123929187,21.58525694153057
258.7331001048103,1078.735473632812,38.76507190472224,21.58526365484165
262.05019113179503,1079.053100585938,38.76504257015223,21.5852703681472
265.3672821587798,1079.373168945312,38.76501323558183,21.58527708144723
268.6843731857645,1079.69580078125,38.76498390101105,21.58528379474175
272.0014642127493,1080.020874023438,38.76495456643989,21.58529050803075
275.31855523973405,1080.348388671875,38.76492523186834,21.58529722131422
278.63564626671877,1080.678588867188,38.76489589729641,21.58530393459218
281.95273729370354,1081.011108398438,38.76486656272409,21.58531064786461
285.26982832068825,1081.34619140625,38.76483722815139,21.58531736113153
288.586919347673,1081.683837890625,38.7648078935783,21.58532407439292
291.9040103746578,1082.024047851562,38.76477855900484,21.5853307876488
295.2211014016425,1082.366577148438,38.76474922443098,21.58533750089915
298.53819242862727,1082.711791992188,38.76471988985674,21.58534421414398
301.855283455612,1083.059448242188,38.76469055528212,21.5853509273833
305.17237448259675,1083.409545898438,38.76466122070711,21.58535764061709
308.4894655095815,1083.76220703125,38.76463188613173,21.58536435384537
311.80655653656623,1084.117309570312,38.76460255155596,21.58537106706812
315.123647563551,1084.47509765625,38.76457321697981,21.58537778028536
318.4407385905357,1084.052978515625,38.76454388240325,21.58538449349708
321.7578296175205,1083.6181640625,38.76451454782633,21.58539120670327
325.07492064450526,1083.203735351562,38.76448521324902,21.58539791990394
328.39201167148997,1082.793579101562,38.76445587867133,21.5854046330991
331.70910269847474,1082.3876953125,38.76442654409325,21.58541134628874
335.0261937254595,1081.98583984375,38.7643972095148,21.58541805947285
338.3432847524442,1081.588256835938,38.76436787493596,21.58542477265145
341.660375779429,1081.194702148438,38.76433854035672,21.58543148582452
344.9774668064137,1080.805419921875,38.76430920577711,21.58543819899208
348.29455783339847,1080.42041015625,38.76427987119712,21.58544491215412
351.61164886038324,1080.039428710938,38.76425053661673,21.58545162531063
354.92873988736795,1079.662719726562,38.76422120203596,21.58545833846162
358.2458309143527,1079.290161132812,38.76419186745482,21.58546505160711
361.56292194133744,1078.921752929688,38.76416253287328,21.58547176474706
364.8800129683222,1078.557495117188,38.76413319829136,21.5854784778815
368.197103995307,1078.197509765625,38.76410386370907,21.58548519101042
371.5141950222917,1077.841674804688,38.76407452912638,21.58549190413381
374.83128604927646,1077.489990234375,38.76404519454331,21.58549861725169
378.14837707626117,1077.142456054688,38.76401585995987,21.58550533036405
381.46546810324594,1076.799072265625,38.76398652537603,21.58551204347089
384.7825591302307,1076.4599609375,38.76395719079181,21.58551875657221
388.0996501572154,1076.125,38.7639278562072,21.58552546966801
391.4167411842002,1075.794189453125,38.76389852162221,21.58553218275829
394.73383221118496,1074.820922851562,38.76386918703684,21.58553889584304
398.0509232381697,1073.3349609375,38.76383985245108,21.58554560892228
401.36801426515444,1071.852416992188,38.76381051786495,21.585552321996
404.68510529213916,1070.373168945312,38.76378118327842,21.5855590350642
408.0021963191239,1068.897216796875,38.76375184869151,21.58556574812688
411.3192873461087,1067.424560546875,38.76372251410422,21.58557246118404
414.6363783730934,1065.955322265625,38.76369317951654,21.58557917423569
417.9534694000782,1064.489379882812,38.76366384492848,21.58558588728181
421.2705604270629,1063.02685546875,38.76363451034003,21.58559260032241
424.58765145404766,1061.567626953125,38.7636051757512,21.58559931335749
427.90474248103243,1060.11181640625,38.76357584116199,21.58560602638705
431.22183350801714,1058.6591796875,38.7635465065724,21.58561273941109
434.5389245350019,1057.210083007812,38.76351717198241,21.58561945242962
437.8560155619866,1055.76416015625,38.76348783739205,21.58562616544262
441.1731065889714,1054.321655273438,38.76345850280131,21.58563287845011
444.49019761595616,1052.882446289062,38.76342916821017,21.58563959145207
447.8072886429409,1051.446655273438,38.76339983361865,21.58564630444851
451.12437966992564,1050.01416015625,38.76337049902675,21.58565301743944
454.44147069691036,1048.5849609375,38.76334116443446,21.58565973042485
457.7585617238951,1047.1591796875,38.7633118298418,21.58566644340473
461.0756527508799,1045.736694335938,38.76328249524875,21.58567315637911
464.3927437778646,1044.317626953125,38.76325316065531,21.58567986934795
467.7098348048494,1042.90185546875,38.7632238260615,21.58568658231128
471.02692583183415,1041.383544921875,38.76319449146728,21.58569329526908
474.34401685881886,1039.259521484375,38.7631651568727,21.58570000822138
477.66110788580363,1037.133911132812,38.76313582227773,21.58570672116814
480.97819891278834,1035.006591796875,38.76310648768236,21.58571343410939
484.2952899397731,1032.877563476562,38.76307715308663,21.58572014704513
487.6123809667579,1030.746948242188,38.76304781849051,21.58572685997533
490.9294719937426,1028.614624023438,38.76301848389399,21.58573357290003
494.24656302072736,1026.480590820312,38.76298914929711,21.5857402858192
497.5636540477121,1024.344848632812,38.76295981469983,21.58574699873285
500.88074507469685,1022.207580566406,38.76293048010217,21.58575371164099
504.1978361016816,1020.068542480469,38.76290114550412,21.5857604245436
507.51492712866633,1017.927856445312,38.76287181090569,21.58576713744069
510.8320181556511,1015.785461425781,38.76284247630689,21.58577385033228
514.1491091826358,1013.641479492188,38.76281314170769,21.58578056321833
517.4662002096206,1011.495788574219,38.76278380710811,21.58578727609887
520.7832912366054,1009.348388671875,38.76275447250814,21.58579398897389
524.1003822635901,1007.199340820312,38.7627251379078,21.58580070184338
527.4174732905748,1005.048645019531,38.76269580330707,21.58580741470736
530.7345643175596,1002.896240234375,38.76266646870595,21.58581412756582
534.0516553445443,1000.7421875,38.76263713410445,21.58582084041876
537.368746371529,998.5864868164062,38.76260779950256,21.58582755326618
540.6858373985139,996.4290771484375,38.7625784649003,21.58583426610808
544.0029284254986,994.27001953125,38.76254913029764,21.58584097894447
547.3200194524833,992.1093139648438,38.76251979569461,21.58584769177533
550.6371104794681,991.0553588867188,38.76249046109119,21.58585440460067
553.9542015064528,990.3865356445312,38.76246112648739,21.5858611174205
557.2712925334375,989.716064453125,38.76243179188321,21.58586783023481
560.5883835604222,989.0438842773438,38.76240245727863,21.58587454304359
563.9054745874071,988.3700561523438,38.76237312267367,21.58588125584686
567.2225656143918,987.694580078125,38.76234378806834,21.58588796864461
570.5396566413765,987.0173950195312,38.76231445346261,21.58589468143684
573.8567476683613,986.3385620117188,38.7622851188565,21.58590139422354
577.173838695346,985.6580200195312,38.76225578425002,21.58590810700474
580.4909297223307,984.975830078125,38.76222644964314,21.58591481978041
583.8080207493156,984.2919921875,38.76219711503588,21.58592153255056
587.1251117763003,983.6065063476562,38.76216778042824,21.5859282453152
590.442202803285,982.9193115234375,38.76213844582021,21.58593495807431
593.7592938302698,982.2304077148438,38.76210911121181,21.58594167082791
597.0763848572545,981.5399169921875,38.762079776603,21.58594838357598
600.3934758842393,980.84765625,38.76205044199383,21.58595509631854
603.710566911224,980.15380859375,38.76202110738427,21.58596180905558
607.0276579382088,979.458251953125,38.76199177277432,21.58596852178709
610.3447489651935,978.7610473632812,38.76196243816398,21.58597523451309
613.6618399921782,978.0621948242188,38.76193310355328,21.58598194723358
616.978931019163,977.3616333007812,38.76190376894218,21.58598865994854
620.2960220461478,976.6593627929688,38.76187443433069,21.58599537265798
623.6131130731325,975.9555053710938,38.76184509971883,21.58600208536191
626.9302041001173,975.8634033203125,38.76181576510658,21.58600879806031
630.247295127102,976.9932250976562,38.76178643049394,21.58601551075319
633.5643861540867,978.121337890625,38.76175709588092,21.58602222344057
636.8814771810714,979.247802734375,38.76172776126752,21.58602893612241
640.1985682080563,980.37255859375,38.76169842665374,21.58603564879874
643.515659235041,981.4956665039062,38.76166909203957,21.58604236146955
646.8327502620257,982.6171264648438,38.76163975742501,21.58604907413484
650.1498412890105,983.7368774414062,38.76161042281007,21.58605578679461
653.4669323159952,984.85498046875,38.76158108819475,21.58606249944886
656.7840233429799,985.971435546875,38.76155175357904,21.5860692120976
660.1011143699648,987.090576171875,38.76152241896295,21.58607592474081
663.4182053969495,988.232666015625,38.76149308434648,21.58608263737851
666.7352964239342,989.3764038085938,38.76146374972963,21.5860893500107
670.052387450919,990.5217895507812,38.76143441511238,21.58609606263735
673.3694784779037,991.6688842773438,38.76140508049476,21.58610277525849
676.6865695048884,992.817626953125,38.76137574587675,21.58610948787411
680.0036605318732,993.9680786132812,38.76134641125836,21.58611620048421
683.320751558858,995.1201782226562,38.76131707663959,21.5861229130888
686.6378425858427,996.27392578125,38.76128774202041,21.58612962568786
689.9549336128274,997.4293823242188,38.76125840740087,21.58613633828141
693.2720246398122,998.5864868164062,38.76122907278094,21.58614305086943
696.5891156667969,999.7452392578125,38.76119973816063,21.58614976345194
699.9062066937817,1000.905700683594,38.76117040353993,21.58615647602893
703.2232977207665,1002.067810058594,38.76114106891885,21.5861631886004
706.5403887477512,1002.626892089844,38.76111173429739,21.58616990116635
709.8574797747359,1003.138061523438,38.76108239967554,21.58617661372678
713.1745708017207,1003.649291992188,38.7610530650533,21.5861833262817
716.4916618287054,1004.160461425781,38.76102373043069,21.5861900388311
719.8087528556902,1004.671691894531,38.76099439580769,21.58619675137497
723.1258438826749,1005.182861328125,38.7609650611843,21.58620346391334
726.4429349096597,1005.694091796875,38.76093572656054,21.58621017644617
729.7600259366444,1006.205261230469,38.76090639193638,21.58621688897349
733.0771169636291,1006.716491699219,38.76087705731185,21.5862236014953
736.394207990614,1007.227661132812,38.76084772268693,21.58623031401158
739.7112990175987,1007.738891601562,38.76081838806164,21.58623702652235
743.0283900445834,1008.250061035156,38.76078905343594,21.58624373902759
746.3454810715682,1008.761291503906,38.76075971880987,21.58625045152732
749.6625720985529,1009.2724609375,38.76073038418341,21.58625716402153
752.9796631255376,1009.78369140625,38.76070104955657,21.58626387651022
756.2967541525223,1010.294860839844,38.76067171492935,21.58627058899339
759.6138451795072,1010.806091308594,38.76064238030174,21.58627730147105
762.9309362064919,1011.317260742188,38.76061304567375,21.58628401394318
766.2480272334766,1011.828491210938,38.76058371104538,21.5862907264098
769.5651182604614,1012.339660644531,38.76055437641663,21.58629743887089
772.8822092874461,1012.850891113281,38.76052504178747,21.58630415132648
776.1993003144308,1013.362060546875,38.76049570715795,21.58631086377654
779.5163913414157,1013.873291015625,38.76046637252804,21.58631757622107
782.8334823684004,1013.628234863281,38.76043703789774,21.5863242886601
786.1505733953851,1012.68115234375,38.76040770326706,21.5863310010936
789.4676644223699,1011.731567382812,38.760378368636,21.58633771352159
792.7847554493546,1010.779479980469,38.76034903400456,21.58634442594406
796.1018464763393,1009.824890136719,38.76031969937272,21.58635113836101
799.4189375033241,1008.867797851562,38.76029036474051,21.58635785077244
802.7360285303089,1007.908203125,38.76026103010791,21.58636456317836
806.0531195572936,1006.946044921875,38.76023169547493,21.58637127557875
809.3702105842783,1005.9814453125,38.76020236084157,21.58637798797362
812.6873016112631,1005.014343261719,38.76017302620782,21.58638470036298
816.0043926382479,1004.044677734375,38.76014369157367,21.58639141274682
819.3214836652326,1003.072570800781,38.76011435693917,21.58639812512514
822.6385746922174,1002.097961425781,38.76008502230426,21.58640483749795
825.9556657192021,1001.120788574219,38.76005568766897,21.58641154986523
829.2727567461868,1000.14111328125,38.7600263530333,21.58641826222699
832.5898477731715,999.1589965820312,38.75999701839725,21.58642497458324
835.9069388001564,998.17431640625,38.75996768376081,21.58643168693397
839.2240298271411,997.1871337890625,38.75993834912399,21.58643839927918
842.5411208541258,996.1974487304688,38.75990901448679,21.58644511161887
845.8582118811106,995.205322265625,38.75987967984921,21.58645182395305
849.1753029080953,994.2106323242188,38.75985034521123,21.5864585362817
852.49239393508,993.2134399414062,38.75982101057287,21.58646524860484
855.8094849620649,992.2137451171875,38.75979167593412,21.58647196092246
859.1265759890496,991.14990234375,38.75976234129501,21.58647867323456
862.4436670160343,989.5980834960938,38.7597330066555,21.58648538554114
865.7607580430191,988.049560546875,38.75970367201561,21.5864920978422
869.0778490700038,986.50439453125,38.75967433737534,21.58649881013775
872.3949400969885,984.9625854492188,38.75964500273468,21.58650552242778
875.7120311239732,983.4241333007812,38.75961566809362,21.58651223471229
879.0291221509581,981.8889770507812,38.75958633345221,21.58651894699128
882.3462131779428,980.357177734375,38.7595569988104,21.58652565926475
885.6633042049275,978.8287353515625,38.75952766416819,21.58653237153271
888.9803952319123,977.3036499023438,38.75949832952562,21.58653908379515
892.297486258897,975.7818603515625,38.75946899488265,21.58654579605206
895.6145772858818,974.263427734375,38.75943966023931,21.58655250830347
898.9316683128666,972.7483520507812,38.75941032559557,21.58655922054935
902.2487593398513,971.2366333007812,38.75938099095146,21.58656593278971
905.565850366836,969.7282104492188,38.75935165630696,21.58657264502456
908.8829413938207,968.22314453125,38.75932232166208,21.58657935725389
912.2000324208055,966.721435546875,38.75929298701681,21.58658606947769
915.5171234477903,965.2230224609375,38.75926365237116,21.58659278169598
918.834214474775,963.72802734375,38.75923431772514,21.58659949390876
922.1513055017598,962.236328125,38.75920498307871,21.58660620611601
